Set,Unknown - Position 1
MatchGraph Time (s),Position (m)
1.10,0.00
1.15,0.01
1.20,0.01
1.25,0.02
1.30,0.03
1.35,0.04
1.40,0.05
1.45,0.06
1.50,0.07
1.55,0.08
1.60,0.10
1.65,0.11
1.70,0.13
1.75,0.15
1.80,0.17
1.85,0.19
1.90,0.21
1.95,0.23
2.00,0.26
2.05,0.28
2.10,0.31
2.15,0.33
2.20,0.36
2.25,0.39
2.30,0.42
2.35,0.46
2.40,0.49
2.45,0.52
2.50,0.56
2.55,0.60
2.60,0.63
2.65,0.67
2.70,0.71
2.75,0.75
2.80,0.80
2.85,0.84
2.90,0.88
2.95,0.93
3.00,0.98
3.05,1.02
