Set,Unknown - Position 1
MatchGraph Time (s),Position (m)
0.95,0.00
1.00,0.01
1.05,0.01
1.10,0.02
1.15,0.03
1.20,0.04
1.25,0.05
1.30,0.06
1.35,0.07
1.40,0.08
1.45,0.10
1.50,0.12
1.55,0.13
1.60,0.15
1.65,0.17
1.70,0.19
1.75,0.21
1.80,0.24
1.85,0.26
1.90,0.29
1.95,0.31
2.00,0.34
2.05,0.37
2.10,0.40
